# last flux surface  x,z 
#points      200
  2.3130E+02  7.4040E+00
  2.3002E+02  1.4710E+01
  2.2796E+02  2.1580E+01
  2.2527E+02  2.8019E+01
  2.2213E+02  3.3946E+01
  2.1873E+02  3.9193E+01
  2.1520E+02  4.3913E+01
  2.1168E+02  4.8073E+01
  2.0825E+02  5.1658E+01
  2.0491E+02  5.4830E+01
  2.0180E+02  5.7587E+01
  1.9892E+02  5.9967E+01
  1.9616E+02  6.2062E+01
  1.9372E+02  6.3943E+01
  1.9145E+02  6.5577E+01
  1.8927E+02  6.6977E+01
  1.8741E+02  6.8273E+01
  1.8564E+02  6.9400E+01
  1.8397E+02  7.0397E+01
  1.8254E+02  7.1345E+01
  1.8114E+02  7.2138E+01
  1.7988E+02  7.2856E+01
  1.7881E+02  7.3533E+01
  1.7770E+02  7.4086E+01
  1.7675E+02  7.4620E+01
  1.7588E+02  7.5121E+01
  1.7495E+02  7.5546E+01
  1.7420E+02  7.5991E+01
  1.7347E+02  7.6394E+01
  1.7271E+02  7.6747E+01
  1.7214E+02  7.7128E+01
  1.7153E+02  7.7439E+01
  1.7096E+02  7.7711E+01
  1.7056E+02  7.7989E+01
  1.7006E+02  7.8184E+01
  1.6967E+02  7.8369E+01
  1.6938E+02  7.8550E+01
  1.6898E+02  7.8657E+01
  1.6872E+02  7.8786E+01
  1.6848E+02  7.8896E+01
  1.6815E+02  7.8951E+01
  1.6796E+02  7.9046E+01
  1.6772E+02  7.9105E+01
  1.6742E+02  7.9134E+01
  1.6726E+02  7.9205E+01
  1.6699E+02  7.9220E+01
  1.6673E+02  7.9231E+01
  1.6657E+02  7.9270E+01
  1.6628E+02  7.9245E+01
  1.6607E+02  7.9240E+01
  1.6591E+02  7.9241E+01
  1.6562E+02  7.9180E+01
  1.6546E+02  7.9158E+01
  1.6527E+02  7.9115E+01
  1.6501E+02  7.9026E+01
  1.6488E+02  7.8982E+01
  1.6467E+02  7.8893E+01
  1.6444E+02  7.8783E+01
  1.6433E+02  7.8712E+01
  1.6411E+02  7.8581E+01
  1.6393E+02  7.8455E+01
  1.6383E+02  7.8352E+01
  1.6360E+02  7.8185E+01
  1.6348E+02  7.8047E+01
  1.6337E+02  7.7905E+01
  1.6314E+02  7.7704E+01
  1.6305E+02  7.7539E+01
  1.6290E+02  7.7336E+01
  1.6268E+02  7.7084E+01
  1.6259E+02  7.6865E+01
  1.6240E+02  7.6577E+01
  1.6218E+02  7.6255E+01
  1.6207E+02  7.5946E+01
  1.6182E+02  7.5546E+01
  1.6161E+02  7.5134E+01
  1.6145E+02  7.4709E+01
  1.6114E+02  7.4193E+01
  1.6092E+02  7.3692E+01
  1.6067E+02  7.3159E+01
  1.6031E+02  7.2555E+01
  1.6006E+02  7.1982E+01
  1.5972E+02  7.1352E+01
  1.5933E+02  7.0673E+01
  1.5905E+02  7.0016E+01
  1.5865E+02  6.9279E+01
  1.5826E+02  6.8510E+01
  1.5795E+02  6.7735E+01
  1.5748E+02  6.6853E+01
  1.5708E+02  6.5949E+01
  1.5670E+02  6.5004E+01
  1.5616E+02  6.3951E+01
  1.5574E+02  6.2896E+01
  1.5527E+02  6.1780E+01
  1.5470E+02  6.0579E+01
  1.5426E+02  5.9383E+01
  1.5372E+02  5.8097E+01
  1.5313E+02  5.6743E+01
  1.5267E+02  5.5385E+01
  1.5206E+02  5.3921E+01
  1.5149E+02  5.2421E+01
  1.5100E+02  5.0902E+01
  1.5037E+02  4.9280E+01
  1.4983E+02  4.7651E+01
  1.4931E+02  4.5984E+01
  1.4868E+02  4.4228E+01
  1.4819E+02  4.2485E+01
  1.4766E+02  4.0683E+01
  1.4708E+02  3.8819E+01
  1.4664E+02  3.6979E+01
  1.4611E+02  3.5070E+01
  1.4560E+02  3.3135E+01
  1.4521E+02  3.1222E+01
  1.4472E+02  2.9236E+01
  1.4430E+02  2.7259E+01
  1.4398E+02  2.5289E+01
  1.4354E+02  2.3251E+01
  1.4324E+02  2.1248E+01
  1.4297E+02  1.9234E+01
  1.4262E+02  1.7171E+01
  1.4244E+02  1.5160E+01
  1.4222E+02  1.3117E+01
  1.4199E+02  1.1052E+01
  1.4192E+02  9.0418E+00
  1.4176E+02  6.9832E+00
  1.4166E+02  4.9349E+00
  1.4169E+02  2.9277E+00
  1.4161E+02  8.6652E-01
  1.4166E+02 -1.1573E+00
  1.4177E+02 -3.1616E+00
  1.4180E+02 -5.2132E+00
  1.4198E+02 -7.2085E+00
  1.4217E+02 -9.2111E+00
  1.4231E+02 -1.1242E+01
  1.4263E+02 -1.3208E+01
  1.4289E+02 -1.5203E+01
  1.4316E+02 -1.7198E+01
  1.4359E+02 -1.9132E+01
  1.4393E+02 -2.1106E+01
  1.4434E+02 -2.3048E+01
  1.4487E+02 -2.4943E+01
  1.4529E+02 -2.6877E+01
  1.4584E+02 -2.8752E+01
  1.4644E+02 -3.0602E+01
  1.4694E+02 -3.2477E+01
  1.4762E+02 -3.4270E+01
  1.4826E+02 -3.6059E+01
  1.4887E+02 -3.7844E+01
  1.4963E+02 -3.9535E+01
  1.5032E+02 -4.1235E+01
  1.5103E+02 -4.2896E+01
  1.5187E+02 -4.4470E+01
  1.5259E+02 -4.6056E+01
  1.5339E+02 -4.7564E+01
  1.5427E+02 -4.8997E+01
  1.5503E+02 -5.0432E+01
  1.5592E+02 -5.1763E+01
  1.5682E+02 -5.3040E+01
  1.5763E+02 -5.4300E+01
  1.5859E+02 -5.5436E+01
  1.5949E+02 -5.6539E+01
  1.6037E+02 -5.7595E+01
  1.6139E+02 -5.8525E+01
  1.6231E+02 -5.9441E+01
  1.6327E+02 -6.0276E+01
  1.6435E+02 -6.1001E+01
  1.6530E+02 -6.1718E+01
  1.6638E+02 -6.2324E+01
  1.6752E+02 -6.2841E+01
  1.6856E+02 -6.3336E+01
  1.6979E+02 -6.3696E+01
  1.7102E+02 -6.3991E+01
  1.7223E+02 -6.4238E+01
  1.7364E+02 -6.4337E+01
  1.7504E+02 -6.4381E+01
  1.7649E+02 -6.4338E+01
  1.7815E+02 -6.4141E+01
  1.7978E+02 -6.3884E+01
  1.8158E+02 -6.3482E+01
  1.8357E+02 -6.2911E+01
  1.8556E+02 -6.2241E+01
  1.8781E+02 -6.1354E+01
  1.9024E+02 -6.0267E+01
  1.9277E+02 -5.9011E+01
  1.9565E+02 -5.7455E+01
  1.9866E+02 -5.5604E+01
  2.0181E+02 -5.3421E+01
  2.0531E+02 -5.0805E+01
  2.0886E+02 -4.7719E+01
  2.1251E+02 -4.4113E+01
  2.1633E+02 -3.9941E+01
  2.1998E+02 -3.5189E+01
  2.2343E+02 -2.9740E+01
  2.2654E+02 -2.3635E+01
  2.2898E+02 -1.7042E+01
  2.3073E+02 -9.9447E+00
  2.3163E+02 -2.5845E+00
  2.3154E+02  4.8178E+00
  2.3055E+02  1.2198E+01
  2.2876E+02  1.9231E+01
  2.2627E+02  2.5815E+01
