# last flux surface  x,z 
#points      200
  2.4480E+02  2.5578E+00
  2.4468E+02  5.1131E+00
  2.4448E+02  7.6631E+00
  2.4419E+02  1.0205E+01
  2.4382E+02  1.2737E+01
  2.4338E+02  1.5255E+01
  2.4285E+02  1.7758E+01
  2.4224E+02  2.0243E+01
  2.4155E+02  2.2707E+01
  2.4079E+02  2.5148E+01
  2.3994E+02  2.7563E+01
  2.3902E+02  2.9950E+01
  2.3803E+02  3.2306E+01
  2.3696E+02  3.4630E+01
  2.3581E+02  3.6917E+01
  2.3459E+02  3.9167E+01
  2.3331E+02  4.1377E+01
  2.3195E+02  4.3544E+01
  2.3052E+02  4.5667E+01
  2.2902E+02  4.7743E+01
  2.2746E+02  4.9770E+01
  2.2584E+02  5.1747E+01
  2.2415E+02  5.3670E+01
  2.2241E+02  5.5538E+01
  2.2060E+02  5.7350E+01
  2.1874E+02  5.9102E+01
  2.1682E+02  6.0794E+01
  2.1485E+02  6.2424E+01
  2.1282E+02  6.3990E+01
  2.1075E+02  6.5491E+01
  2.0863E+02  6.6924E+01
  2.0647E+02  6.8289E+01
  2.0426E+02  6.9584E+01
  2.0202E+02  7.0808E+01
  1.9973E+02  7.1959E+01
  1.9741E+02  7.3037E+01
  1.9506E+02  7.4039E+01
  1.9267E+02  7.4966E+01
  1.9026E+02  7.5817E+01
  1.8782E+02  7.6589E+01
  1.8536E+02  7.7283E+01
  1.8288E+02  7.7898E+01
  1.8038E+02  7.8434E+01
  1.7786E+02  7.8889E+01
  1.7533E+02  7.9263E+01
  1.7279E+02  7.9556E+01
  1.7024E+02  7.9767E+01
  1.6768E+02  7.9897E+01
  1.6512E+02  7.9945E+01
  1.6257E+02  7.9912E+01
  1.6001E+02  7.9796E+01
  1.5746E+02  7.9599E+01
  1.5492E+02  7.9320E+01
  1.5238E+02  7.8960E+01
  1.4986E+02  7.8519E+01
  1.4736E+02  7.7998E+01
  1.4487E+02  7.7397E+01
  1.4241E+02  7.6716E+01
  1.3996E+02  7.5957E+01
  1.3755E+02  7.5121E+01
  1.3516E+02  7.4207E+01
  1.3280E+02  7.3217E+01
  1.3047E+02  7.2153E+01
  1.2818E+02  7.1014E+01
  1.2593E+02  6.9803E+01
  1.2371E+02  6.8521E+01
  1.2154E+02  6.7168E+01
  1.1942E+02  6.5746E+01
  1.1734E+02  6.4257E+01
  1.1530E+02  6.2703E+01
  1.1332E+02  6.1084E+01
  1.1140E+02  5.9402E+01
  1.0952E+02  5.7660E+01
  1.0771E+02  5.5859E+01
  1.0595E+02  5.4000E+01
  1.0425E+02  5.2087E+01
  1.0262E+02  5.0119E+01
  1.0104E+02  4.8101E+01
  9.9538E+01  4.6033E+01
  9.8098E+01  4.3919E+01
  9.6727E+01  4.1759E+01
  9.5426E+01  3.9556E+01
  9.4196E+01  3.7313E+01
  9.3039E+01  3.5032E+01
  9.1955E+01  3.2715E+01
  9.0945E+01  3.0364E+01
  9.0012E+01  2.7983E+01
  8.9155E+01  2.5572E+01
  8.8375E+01  2.3136E+01
  8.7674E+01  2.0676E+01
  8.7052E+01  1.8194E+01
  8.6510E+01  1.5694E+01
  8.6048E+01  1.3178E+01
  8.5667E+01  1.0648E+01
  8.5367E+01  8.1079E+00
  8.5148E+01  5.5592E+00
  8.5011E+01  3.0047E+00
  8.4956E+01  4.4707E-01
  8.4982E+01 -2.1109E+00
  8.5091E+01 -4.6667E+00
  8.5281E+01 -7.2178E+00
  8.5553E+01 -9.7616E+00
  8.5906E+01 -1.2295E+01
  8.6339E+01 -1.4816E+01
  8.6854E+01 -1.7322E+01
  8.7448E+01 -1.9810E+01
  8.8121E+01 -2.2278E+01
  8.8873E+01 -2.4723E+01
  8.9703E+01 -2.7143E+01
  9.0610E+01 -2.9535E+01
  9.1593E+01 -3.1897E+01
  9.2651E+01 -3.4226E+01
  9.3783E+01 -3.6520E+01
  9.4988E+01 -3.8777E+01
  9.6265E+01 -4.0994E+01
  9.7611E+01 -4.3169E+01
  9.9027E+01 -4.5299E+01
  1.0051E+02 -4.7384E+01
  1.0206E+02 -4.9420E+01
  1.0367E+02 -5.1405E+01
  1.0535E+02 -5.3338E+01
  1.0709E+02 -5.5216E+01
  1.0888E+02 -5.7037E+01
  1.1074E+02 -5.8800E+01
  1.1264E+02 -6.0503E+01
  1.1461E+02 -6.2144E+01
  1.1662E+02 -6.3721E+01
  1.1868E+02 -6.5233E+01
  1.2079E+02 -6.6679E+01
  1.2295E+02 -6.8056E+01
  1.2515E+02 -6.9363E+01
  1.2739E+02 -7.0599E+01
  1.2967E+02 -7.1763E+01
  1.3198E+02 -7.2854E+01
  1.3433E+02 -7.3870E+01
  1.3671E+02 -7.4810E+01
  1.3912E+02 -7.5674E+01
  1.4155E+02 -7.6460E+01
  1.4401E+02 -7.7168E+01
  1.4649E+02 -7.7797E+01
  1.4899E+02 -7.8346E+01
  1.5150E+02 -7.8815E+01
  1.5403E+02 -7.9203E+01
  1.5657E+02 -7.9511E+01
  1.5912E+02 -7.9736E+01
  1.6167E+02 -7.9880E+01
  1.6423E+02 -7.9943E+01
  1.6679E+02 -7.9923E+01
  1.6934E+02 -7.9822E+01
  1.7190E+02 -7.9639E+01
  1.7444E+02 -7.9374E+01
  1.7697E+02 -7.9029E+01
  1.7950E+02 -7.8602E+01
  1.8200E+02 -7.8095E+01
  1.8449E+02 -7.7507E+01
  1.8696E+02 -7.6841E+01
  1.8941E+02 -7.6096E+01
  1.9183E+02 -7.5272E+01
  1.9423E+02 -7.4372E+01
  1.9659E+02 -7.3396E+01
  1.9892E+02 -7.2344E+01
  2.0122E+02 -7.1219E+01
  2.0348E+02 -7.0020E+01
  2.0570E+02 -6.8750E+01
  2.0788E+02 -6.7409E+01
  2.1002E+02 -6.6000E+01
  2.1210E+02 -6.4522E+01
  2.1414E+02 -6.2979E+01
  2.1613E+02 -6.1371E+01
  2.1807E+02 -5.9701E+01
  2.1995E+02 -5.7969E+01
  2.2178E+02 -5.6178E+01
  2.2355E+02 -5.4329E+01
  2.2526E+02 -5.2425E+01
  2.2690E+02 -5.0467E+01
  2.2849E+02 -4.8457E+01
  2.3000E+02 -4.6398E+01
  2.3146E+02 -4.4292E+01
  2.3284E+02 -4.2139E+01
  2.3415E+02 -3.9944E+01
  2.3539E+02 -3.7708E+01
  2.3656E+02 -3.5433E+01
  2.3766E+02 -3.3122E+01
  2.3868E+02 -3.0777E+01
  2.3963E+02 -2.8401E+01
  2.4050E+02 -2.5995E+01
  2.4129E+02 -2.3563E+01
  2.4201E+02 -2.1107E+01
  2.4265E+02 -1.8629E+01
  2.4320E+02 -1.6132E+01
  2.4368E+02 -1.3619E+01
  2.4407E+02 -1.1091E+01
  2.4439E+02 -8.5526E+00
  2.4462E+02 -6.0050E+00
  2.4477E+02 -3.4514E+00
  2.4484E+02 -8.9425E-01
  2.4483E+02  1.6639E+00
  2.4473E+02  4.2204E+00
  2.4456E+02  6.7724E+00
  2.4430E+02  9.3176E+00
