# last flux surface  x,z 
#points      200
  2.2483E+02  1.2783E+00
  2.2477E+02  2.5554E+00
  2.2467E+02  3.8298E+00
  2.2453E+02  5.1002E+00
  2.2434E+02  6.3655E+00
  2.2412E+02  7.6242E+00
  2.2386E+02  8.8752E+00
  2.2355E+02  1.0117E+01
  2.2321E+02  1.1348E+01
  2.2283E+02  1.2568E+01
  2.2240E+02  1.3775E+01
  2.2195E+02  1.4968E+01
  2.2145E+02  1.6146E+01
  2.2091E+02  1.7307E+01
  2.2034E+02  1.8450E+01
  2.1973E+02  1.9575E+01
  2.1909E+02  2.0679E+01
  2.1841E+02  2.1762E+01
  2.1769E+02  2.2823E+01
  2.1695E+02  2.3861E+01
  2.1617E+02  2.4874E+01
  2.1536E+02  2.5861E+01
  2.1451E+02  2.6823E+01
  2.1364E+02  2.7756E+01
  2.1274E+02  2.8662E+01
  2.1181E+02  2.9538E+01
  2.1085E+02  3.0383E+01
  2.0986E+02  3.1198E+01
  2.0885E+02  3.1980E+01
  2.0781E+02  3.2730E+01
  2.0676E+02  3.3447E+01
  2.0567E+02  3.4129E+01
  2.0457E+02  3.4776E+01
  2.0345E+02  3.5388E+01
  2.0231E+02  3.5963E+01
  2.0115E+02  3.6502E+01
  1.9997E+02  3.7003E+01
  1.9878E+02  3.7466E+01
  1.9757E+02  3.7891E+01
  1.9636E+02  3.8277E+01
  1.9513E+02  3.8624E+01
  1.9388E+02  3.8931E+01
  1.9263E+02  3.9199E+01
  1.9138E+02  3.9426E+01
  1.9011E+02  3.9613E+01
  1.8884E+02  3.9760E+01
  1.8757E+02  3.9865E+01
  1.8629E+02  3.9930E+01
  1.8501E+02  3.9954E+01
  1.8373E+02  3.9937E+01
  1.8246E+02  3.9880E+01
  1.8118E+02  3.9781E+01
  1.7991E+02  3.9642E+01
  1.7865E+02  3.9462E+01
  1.7739E+02  3.9242E+01
  1.7613E+02  3.8981E+01
  1.7489E+02  3.8681E+01
  1.7366E+02  3.8341E+01
  1.7244E+02  3.7961E+01
  1.7123E+02  3.7543E+01
  1.7004E+02  3.7086E+01
  1.6886E+02  3.6592E+01
  1.6769E+02  3.6060E+01
  1.6655E+02  3.5491E+01
  1.6542E+02  3.4886E+01
  1.6432E+02  3.4245E+01
  1.6323E+02  3.3568E+01
  1.6217E+02  3.2858E+01
  1.6113E+02  3.2114E+01
  1.6011E+02  3.1337E+01
  1.5912E+02  3.0528E+01
  1.5816E+02  2.9688E+01
  1.5722E+02  2.8817E+01
  1.5632E+02  2.7917E+01
  1.5544E+02  2.6988E+01
  1.5459E+02  2.6031E+01
  1.5377E+02  2.5048E+01
  1.5299E+02  2.4040E+01
  1.5223E+02  2.3006E+01
  1.5151E+02  2.1949E+01
  1.5083E+02  2.0870E+01
  1.5018E+02  1.9769E+01
  1.4956E+02  1.8648E+01
  1.4899E+02  1.7508E+01
  1.4844E+02  1.6350E+01
  1.4794E+02  1.5175E+01
  1.4747E+02  1.3985E+01
  1.4704E+02  1.2780E+01
  1.4666E+02  1.1563E+01
  1.4630E+02  1.0333E+01
  1.4599E+02  9.0929E+00
  1.4572E+02  7.8434E+00
  1.4549E+02  6.5860E+00
  1.4530E+02  5.3218E+00
  1.4515E+02  4.0521E+00
  1.4504E+02  2.7783E+00
  1.4497E+02  1.5017E+00
  1.4495E+02  2.2343E-01
  1.4496E+02 -1.0550E+00
  1.4501E+02 -2.3323E+00
  1.4511E+02 -3.6073E+00
  1.4524E+02 -4.8785E+00
  1.4542E+02 -6.1448E+00
  1.4564E+02 -7.4047E+00
  1.4589E+02 -8.6572E+00
  1.4619E+02 -9.9007E+00
  1.4653E+02 -1.1134E+01
  1.4690E+02 -1.2356E+01
  1.4732E+02 -1.3565E+01
  1.4777E+02 -1.4761E+01
  1.4826E+02 -1.5941E+01
  1.4879E+02 -1.7105E+01
  1.4936E+02 -1.8252E+01
  1.4996E+02 -1.9379E+01
  1.5060E+02 -2.0487E+01
  1.5127E+02 -2.1574E+01
  1.5198E+02 -2.2639E+01
  1.5272E+02 -2.3681E+01
  1.5349E+02 -2.4699E+01
  1.5430E+02 -2.5691E+01
  1.5514E+02 -2.6657E+01
  1.5601E+02 -2.7595E+01
  1.5690E+02 -2.8506E+01
  1.5783E+02 -2.9387E+01
  1.5878E+02 -3.0238E+01
  1.5977E+02 -3.1058E+01
  1.6077E+02 -3.1846E+01
  1.6180E+02 -3.2602E+01
  1.6286E+02 -3.3324E+01
  1.6394E+02 -3.4012E+01
  1.6503E+02 -3.4666E+01
  1.6615E+02 -3.5283E+01
  1.6729E+02 -3.5865E+01
  1.6845E+02 -3.6410E+01
  1.6962E+02 -3.6918E+01
  1.7081E+02 -3.7388E+01
  1.7201E+02 -3.7819E+01
  1.7323E+02 -3.8212E+01
  1.7446E+02 -3.8566E+01
  1.7570E+02 -3.8880E+01
  1.7695E+02 -3.9155E+01
  1.7820E+02 -3.9389E+01
  1.7947E+02 -3.9583E+01
  1.8074E+02 -3.9737E+01
  1.8201E+02 -3.9850E+01
  1.8329E+02 -3.9922E+01
  1.8457E+02 -3.9953E+01
  1.8584E+02 -3.9943E+01
  1.8712E+02 -3.9893E+01
  1.8840E+02 -3.9801E+01
  1.8967E+02 -3.9669E+01
  1.9093E+02 -3.9496E+01
  1.9220E+02 -3.9283E+01
  1.9345E+02 -3.9029E+01
  1.9469E+02 -3.8736E+01
  1.9593E+02 -3.8403E+01
  1.9715E+02 -3.8030E+01
  1.9836E+02 -3.7619E+01
  1.9956E+02 -3.7169E+01
  2.0074E+02 -3.6681E+01
  2.0190E+02 -3.6156E+01
  2.0305E+02 -3.5593E+01
  2.0418E+02 -3.4994E+01
  2.0529E+02 -3.4359E+01
  2.0638E+02 -3.3689E+01
  2.0745E+02 -3.2985E+01
  2.0849E+02 -3.2246E+01
  2.0951E+02 -3.1475E+01
  2.1051E+02 -3.0672E+01
  2.1147E+02 -2.9837E+01
  2.1241E+02 -2.8971E+01
  2.1333E+02 -2.8076E+01
  2.1421E+02 -2.7152E+01
  2.1506E+02 -2.6200E+01
  2.1589E+02 -2.5222E+01
  2.1668E+02 -2.4218E+01
  2.1744E+02 -2.3188E+01
  2.1816E+02 -2.2136E+01
  2.1885E+02 -2.1060E+01
  2.1951E+02 -1.9963E+01
  2.2013E+02 -1.8845E+01
  2.2072E+02 -1.7709E+01
  2.2126E+02 -1.6554E+01
  2.2178E+02 -1.5382E+01
  2.2225E+02 -1.4194E+01
  2.2268E+02 -1.2992E+01
  2.2308E+02 -1.1776E+01
  2.2344E+02 -1.0549E+01
  2.2375E+02 -9.3104E+00
  2.2403E+02 -8.0624E+00
  2.2427E+02 -6.8062E+00
  2.2447E+02 -5.5432E+00
  2.2463E+02 -4.2744E+00
  2.2474E+02 -3.0011E+00
  2.2482E+02 -1.7249E+00
  2.2485E+02 -4.4692E-01
  2.2485E+02  8.3159E-01
  2.2480E+02  2.1092E+00
  2.2471E+02  3.3846E+00
  2.2458E+02  4.6567E+00
