# last flux surface  x,z 
#points      200
  2.4470E+02  2.5544E+00
  2.4458E+02  5.1063E+00
  2.4437E+02  7.6529E+00
  2.4409E+02  1.0192E+01
  2.4372E+02  1.2720E+01
  2.4327E+02  1.5235E+01
  2.4275E+02  1.7735E+01
  2.4214E+02  2.0217E+01
  2.4145E+02  2.2677E+01
  2.4069E+02  2.5115E+01
  2.3985E+02  2.7527E+01
  2.3893E+02  2.9911E+01
  2.3793E+02  3.2264E+01
  2.3686E+02  3.4584E+01
  2.3572E+02  3.6869E+01
  2.3450E+02  3.9115E+01
  2.3322E+02  4.1322E+01
  2.3186E+02  4.3487E+01
  2.3043E+02  4.5607E+01
  2.2894E+02  4.7680E+01
  2.2738E+02  4.9705E+01
  2.2576E+02  5.1678E+01
  2.2407E+02  5.3599E+01
  2.2233E+02  5.5465E+01
  2.2053E+02  5.7274E+01
  2.1866E+02  5.9024E+01
  2.1675E+02  6.0714E+01
  2.1478E+02  6.2342E+01
  2.1276E+02  6.3906E+01
  2.1069E+02  6.5404E+01
  2.0857E+02  6.6836E+01
  2.0641E+02  6.8199E+01
  2.0421E+02  6.9492E+01
  2.0197E+02  7.0715E+01
  1.9969E+02  7.1864E+01
  1.9737E+02  7.2940E+01
  1.9502E+02  7.3942E+01
  1.9264E+02  7.4868E+01
  1.9023E+02  7.5717E+01
  1.8779E+02  7.6488E+01
  1.8533E+02  7.7181E+01
  1.8285E+02  7.7796E+01
  1.8035E+02  7.8330E+01
  1.7784E+02  7.8785E+01
  1.7531E+02  7.9158E+01
  1.7278E+02  7.9451E+01
  1.7023E+02  7.9662E+01
  1.6768E+02  7.9792E+01
  1.6512E+02  7.9840E+01
  1.6257E+02  7.9806E+01
  1.6002E+02  7.9691E+01
  1.5747E+02  7.9494E+01
  1.5493E+02  7.9215E+01
  1.5240E+02  7.8856E+01
  1.4988E+02  7.8415E+01
  1.4738E+02  7.7895E+01
  1.4490E+02  7.7295E+01
  1.4244E+02  7.6615E+01
  1.4000E+02  7.5857E+01
  1.3758E+02  7.5021E+01
  1.3520E+02  7.4109E+01
  1.3284E+02  7.3121E+01
  1.3052E+02  7.2058E+01
  1.2823E+02  7.0921E+01
  1.2598E+02  6.9711E+01
  1.2377E+02  6.8430E+01
  1.2160E+02  6.7079E+01
  1.1948E+02  6.5660E+01
  1.1740E+02  6.4173E+01
  1.1537E+02  6.2620E+01
  1.1339E+02  6.1003E+01
  1.1147E+02  5.9324E+01
  1.0960E+02  5.7584E+01
  1.0778E+02  5.5785E+01
  1.0603E+02  5.3929E+01
  1.0433E+02  5.2018E+01
  1.0270E+02  5.0053E+01
  1.0113E+02  4.8038E+01
  9.9624E+01  4.5973E+01
  9.8187E+01  4.3861E+01
  9.6818E+01  4.1704E+01
  9.5518E+01  3.9504E+01
  9.4290E+01  3.7264E+01
  9.3134E+01  3.4986E+01
  9.2051E+01  3.2672E+01
  9.1043E+01  3.0324E+01
  9.0111E+01  2.7946E+01
  8.9255E+01  2.5538E+01
  8.8477E+01  2.3105E+01
  8.7776E+01  2.0648E+01
  8.7155E+01  1.8170E+01
  8.6614E+01  1.5673E+01
  8.6152E+01  1.3161E+01
  8.5772E+01  1.0634E+01
  8.5472E+01  8.0972E+00
  8.5253E+01  5.5518E+00
  8.5117E+01  3.0007E+00
  8.5061E+01  4.4648E-01
  8.5088E+01 -2.1082E+00
  8.5196E+01 -4.6605E+00
  8.5386E+01 -7.2083E+00
  8.5658E+01 -9.7487E+00
  8.6010E+01 -1.2279E+01
  8.6443E+01 -1.4797E+01
  8.6957E+01 -1.7299E+01
  8.7550E+01 -1.9784E+01
  8.8223E+01 -2.2249E+01
  8.8974E+01 -2.4691E+01
  8.9803E+01 -2.7107E+01
  9.0709E+01 -2.9496E+01
  9.1690E+01 -3.1855E+01
  9.2747E+01 -3.4181E+01
  9.3877E+01 -3.6472E+01
  9.5081E+01 -3.8726E+01
  9.6355E+01 -4.0940E+01
  9.7700E+01 -4.3112E+01
  9.9114E+01 -4.5240E+01
  1.0060E+02 -4.7321E+01
  1.0214E+02 -4.9355E+01
  1.0375E+02 -5.1337E+01
  1.0543E+02 -5.3267E+01
  1.0716E+02 -5.5143E+01
  1.0896E+02 -5.6962E+01
  1.1081E+02 -5.8723E+01
  1.1271E+02 -6.0423E+01
  1.1467E+02 -6.2062E+01
  1.1668E+02 -6.3637E+01
  1.1875E+02 -6.5147E+01
  1.2085E+02 -6.6591E+01
  1.2301E+02 -6.7966E+01
  1.2520E+02 -6.9271E+01
  1.2744E+02 -7.0506E+01
  1.2971E+02 -7.1669E+01
  1.3203E+02 -7.2758E+01
  1.3437E+02 -7.3772E+01
  1.3675E+02 -7.4711E+01
  1.3915E+02 -7.5574E+01
  1.4158E+02 -7.6359E+01
  1.4404E+02 -7.7066E+01
  1.4651E+02 -7.7694E+01
  1.4901E+02 -7.8243E+01
  1.5152E+02 -7.8711E+01
  1.5404E+02 -7.9099E+01
  1.5658E+02 -7.9406E+01
  1.5913E+02 -7.9631E+01
  1.6168E+02 -7.9775E+01
  1.6423E+02 -7.9837E+01
  1.6679E+02 -7.9818E+01
  1.6934E+02 -7.9717E+01
  1.7189E+02 -7.9534E+01
  1.7443E+02 -7.9270E+01
  1.7696E+02 -7.8924E+01
  1.7948E+02 -7.8498E+01
  1.8198E+02 -7.7992E+01
  1.8447E+02 -7.7405E+01
  1.8693E+02 -7.6739E+01
  1.8938E+02 -7.5995E+01
  1.9180E+02 -7.5173E+01
  1.9419E+02 -7.4274E+01
  1.9655E+02 -7.3299E+01
  1.9888E+02 -7.2249E+01
  2.0117E+02 -7.1125E+01
  2.0343E+02 -6.9928E+01
  2.0565E+02 -6.8659E+01
  2.0782E+02 -6.7320E+01
  2.0996E+02 -6.5912E+01
  2.1204E+02 -6.4437E+01
  2.1408E+02 -6.2896E+01
  2.1607E+02 -6.1290E+01
  2.1800E+02 -5.9622E+01
  2.1988E+02 -5.7892E+01
  2.2171E+02 -5.6104E+01
  2.2347E+02 -5.4258E+01
  2.2518E+02 -5.2356E+01
  2.2682E+02 -5.0401E+01
  2.2840E+02 -4.8393E+01
  2.2992E+02 -4.6337E+01
  2.3137E+02 -4.4233E+01
  2.3275E+02 -4.2084E+01
  2.3406E+02 -3.9891E+01
  2.3530E+02 -3.7658E+01
  2.3647E+02 -3.5387E+01
  2.3757E+02 -3.3079E+01
  2.3859E+02 -3.0737E+01
  2.3953E+02 -2.8364E+01
  2.4040E+02 -2.5961E+01
  2.4119E+02 -2.3532E+01
  2.4191E+02 -2.1079E+01
  2.4254E+02 -1.8605E+01
  2.4310E+02 -1.6111E+01
  2.4357E+02 -1.3601E+01
  2.4397E+02 -1.1077E+01
  2.4428E+02 -8.5413E+00
  2.4452E+02 -5.9971E+00
  2.4467E+02 -3.4468E+00
  2.4474E+02 -8.9307E-01
  2.4472E+02  1.6617E+00
  2.4463E+02  4.2148E+00
  2.4445E+02  6.7635E+00
  2.4420E+02  9.3053E+00
